0.064
0.072
0.084
0.104
0.109
0.12
0.134
0.149
0.161
0.169
0.179
0.18
0.189
0.189
0.19
0.189
0.194
0.198
0.193
0.188
0.176
0.171
0.158
0.144
0.136
0.136
0.133
0.117
0.115
0.115
0.12
0.117
0.115
0.119
0.114
0.111
0.101
0.096
0.09
0.086
0.075
0.065
0.07
0.074
0.08
0.076
0.084
0.092
0.102
0.109
0.117
0.133
0.141
0.14
0.126
0.128
0.129
0.12
0.098
0.062
0.039
0.026
0.031
0.037
0.048
0.051
0.05
0.048
0.048
0.05
0.046
0.041
0.033
0.034
0.037
0.04
0.039
0.04
0.046
0.043
0.04
0.035
0.039
0.045
0.048
0.055
0.059
0.07
0.075
0.075
0.08
0.094
0.11
0.114
0.117
0.116
0.119
0.113
0.104
0.091
0.085
0.08
0.064
0.04
0.021
0.01
-0.003
-0.015
-0.02
-0.02
-0.016
-0.021
-0.026
-0.025
-0.022
-0.018
-0.025
-0.021
-0.013
-0.003
-0.001
0
0.007
0.02
0.024
0.024
0.035
0.058
0.087
0.125
0.193
0.281
0.381
0.46
0.512
0.541
0.53
0.492
0.404
0.325
0.259
0.207
0.158
0.107
0.077
0.061
0.058
0.052
0.05
0.055
0.062
0.059
0.05
0.058
0.072
0.094
0.1
0.087
0.065
0.043
0.021
-0.005
-0.015
-0.026
-0.051
-0.085
-0.1
-0.089
-0.094
-0.107
-0.124
-0.13
-0.125
-0.117
-0.117
-0.129
-0.142
-0.15
-0.158
-0.16
-0.164
-0.164
-0.168
-0.17
-0.17
-0.165
-0.155
-0.15
-0.142
-0.135
-0.121
-0.115
-0.104
-0.085
-0.062
-0.04
-0.021
-0.007
0.004
0.016
0.024
0.034
0.043
0.056
0.065
0.074
0.081
0.085
0.085
0.079
0.075
0.069
0.068
0.065
0.066
0.07
0.075
0.076
0.077
0.079
0.075
0.074
0.069
0.068
0.069
0.071
0.076
0.079
0.087
0.094
0.104
0.096
0.081
0.066
0.058
0.052
0.041
0.034
0.022
0.007
-0.015
-0.028
-0.026
-0.03
-0.025
-0.022
-0.028
-0.036
-0.044
-0.046
-0.055
-0.061
-0.068
-0.074
-0.077
-0.08
-0.08
-0.084
-0.089
-0.101
-0.11
-0.116
-0.13
-0.138
-0.141
-0.139
-0.141
-0.145
-0.147
-0.155
-0.161
-0.172
-0.179
-0.194
-0.198
-0.199
-0.196
-0.189
-0.182
-0.18
-0.184
-0.185
-0.184
-0.177
-0.175
-0.18
-0.185
-0.19
-0.193
-0.203
-0.211
-0.217
-0.224
-0.224
-0.224
-0.229
-0.237
-0.242
-0.247
-0.247
-0.249
-0.245
-0.245
-0.247
-0.244
-0.246
-0.249
-0.247
-0.245
-0.237
-0.233
-0.229
-0.23
-0.228
-0.226
-0.224
-0.223
-0.219
-0.215
-0.198
-0.159
-0.09
-0.005
0.096
0.193
0.251
0.281
0.259
0.199
0.104
-0.001
-0.089
-0.17
-0.24
-0.302
-0.356
-0.389
-0.421
-0.429
-0.439
-0.435
-0.438
-0.44
-0.432
-0.432
-0.425
-0.434
-0.429
-0.432
-0.426
-0.42
-0.419
-0.41
-0.414
-0.414
-0.421
-0.412
-0.414
-0.405
-0.396
-0.395
-0.39
-0.391
-0.386
-0.394
-0.389
-0.385
-0.38
-0.375
-0.379
-0.381
-0.39
-0.386
-0.389
-0.381
-0.371
-0.352
-0.34
-0.326
-0.306
-0.291
-0.274
-0.259
-0.244
-0.226
-0.205
-0.179
-0.154
-0.13
-0.116
-0.102
-0.089
-0.075
-0.071
-0.068
-0.068
-0.061
-0.055
-0.045
-0.035
-0.035
-0.03
-0.022
-0.01
-0.005
-0.001
0.007
0.01
0.018
0.021
0.03
0.03
0.03
0.029
0.036
0.051
0.068
0.085
0.101
0.116
0.125
0.138
0.145
0.147
0.145
0.135
0.125
0.115
0.115
0.115
0.117
0.113
0.11
0.107
0.099
0.092
0.081
0.084
0.089
0.096
0.098
0.095
0.098
0.098
0.095
0.083
0.075
0.066
0.055
0.04
0.028
0.029
0.022
0.019
0.01
0.009
0.004
-0.003
-0.005
-0.011
-0.013
-0.01
-0.007
-0.004
0.009
0.03
0.051
0.075
0.091
0.115
0.135
0.151
0.158
0.177
0.199
0.21
0.219
0.223
0.236
0.237
0.236
0.233
0.229
0.229
0.225
0.223
0.215
0.22
0.217
0.217
0.216
0.22
0.226
0.228
0.228
0.219
0.22
0.219
0.215
0.206
0.2
0.199
0.194
0.194
0.189
0.19
0.191
0.193
0.194
0.191
0.199
0.205
0.228
0.264
0.331
0.417
0.515
0.604
0.659
0.684
0.646
0.584
0.489
0.409
0.34
0.285
0.237
0.188
0.155
0.121
0.095
0.07
0.056
0.049
0.034
0.024
0.01
-0.001
-0.015
-0.03
-0.039
-0.036
-0.043
-0.068
-0.104
-0.14
-0.179
-0.216
-0.242
-0.237
-0.204
-0.175
-0.169
-0.175
-0.169
-0.16
-0.151
-0.159
-0.163
-0.164
-0.168
-0.176
-0.188
-0.19
-0.199
-0.203
-0.21
-0.211
-0.211
-0.215
-0.217
-0.219
-0.201
-0.175
-0.133
-0.089
-0.051
-0.013
0.025
0.059
0.086
0.11
0.13
0.147
0.16
0.175
0.175
0.176
0.17
0.171
0.17
0.17
0.174
0.18
0.193
0.199
0.207
0.204
0.2
0.196
0.19
0.185
0.166
0.155
0.146
0.147
0.147
0.152
0.161
0.16
0.165
0.164
0.171
0.172
0.174
0.171
0.163
0.164
0.163
0.165
0.164
0.166
0.169
0.179
0.186
0.186
0.19
0.184
0.179
0.168
0.166
0.169
0.166
0.169
0.165
0.168
0.16
0.155
0.152
0.146
0.142
0.14
0.141
0.146
0.156
0.16
0.166
0.17
0.177
0.182
0.188
0.195
0.201
0.21
0.21
0.212
0.212
0.214
0.215
0.215
0.219
0.214
0.217
0.215
0.211
0.204
0.201
0.201
0.193
0.19
0.182
0.179
0.174
0.17
0.169
0.171
0.176
0.169
0.169
0.168
0.174
0.176
0.18
0.19
0.193
0.201
0.203
0.214
0.217
0.229
0.239
0.237
0.242
0.24
0.245
0.245
0.261
0.274
0.297
0.323
0.36
0.425
0.507
0.619
0.705
0.797
0.845
0.864
0.839
0.745
0.647
0.537
0.464
0.386
0.325
0.274
0.229
0.196
0.169
0.158
0.142
0.13
0.111
0.101
0.092
0.087
0.083
0.075
0.07
0.059
0.049
0.035
0.019
0.01
0.004
0.005
0.004
0.01
0.015
0.015
0.013
0.014
0.022
0.019
0.015
0.013
0.013
0.011
0.013
0.019
0.03
0.049
0.059
0.068
0.069
0.071
0.072
0.08
0.094
0.098
0.11
0.113
0.117
0.121
0.136
0.154
0.152
0.161
0.161
0.166
0.161
0.16
0.156
0.155
0.156
0.147
0.141
0.135
0.131
0.119
0.11
0.104
0.095
0.085
0.066
0.059
0.055
0.056
0.048
0.031
0.025
0.024
0.021
0.02
0.025
0.029
0.028
0.024
0.022
0.026
0.029
0.028
0.024
0.025
0.022
0.02
0.015
0.01
0.011
0.014
0.015
0.009
0.006
-0.001
-0.01
-0.024
-0.033
-0.035
-0.043
-0.046
-0.049
-0.051
-0.06
-0.074
-0.087
-0.101
-0.11
-0.121
-0.133
-0.139
-0.149
-0.165
-0.179
-0.195
-0.207
-0.219
-0.23
-0.247
-0.263
-0.284
-0.304
-0.341
-0.379
-0.396
-0.4
-0.374
-0.36
-0.369
-0.41
-0.426
-0.41
-0.379
-0.34
-0.325
-0.318
-0.33
-0.343
-0.361
-0.378
-0.388
-0.404
-0.406
-0.417
-0.417
-0.43
-0.427
-0.422
-0.427
-0.429
-0.43
-0.411
-0.4
-0.381
-0.365
-0.351
-0.338
-0.321
-0.3
-0.285
-0.266
-0.258
-0.25
-0.242
-0.233
-0.212
-0.182
-0.13
-0.05
0.055
0.154
0.24
0.295
0.316
0.286
0.22
0.134
0.056
-0.003
-0.054
-0.09
-0.124
-0.142
-0.151
-0.163
-0.168
-0.17
-0.171
-0.176
-0.18
-0.179
-0.174
-0.166
-0.163
-0.156
-0.145
-0.138
-0.14
-0.144
-0.147
-0.151
-0.155
-0.163
-0.164
-0.17
-0.172
-0.176
-0.186
-0.19
-0.193
-0.196
-0.206
-0.21
-0.212
-0.212
-0.212
-0.211
-0.196
-0.185
-0.172
-0.168
-0.156
-0.14
-0.125
-0.114
-0.1
-0.085
-0.07
-0.055
-0.043
-0.031
-0.015
0.004
0.015
0.026
0.04
0.054
0.064
0.069
0.075
0.081
0.089
0.085
0.085
0.084
0.089
0.086
0.084
0.085
0.076
0.072
0.064
0.056
0.051
0.049
0.049
0.037
0.037
0.037
0.044
0.045
0.046
0.048
0.048
0.046
0.04
0.036
0.033
0.033
0.03
0.03
0.035
0.04
0.044
0.043
0.045
0.049
0.056
0.059
0.055
0.05
0.045
0.043
0.041
0.045
0.049
0.048
0.043
0.039
0.044
0.048
0.052
0.05
0.052
0.05
0.043
0.039
0.034
0.033
0.029
0.028
0.022
0.016
0.011
0.006
-0.001
-0.009
-0.013
-0.024
-0.033
-0.039
-0.04
-0.043
-0.049
-0.049
-0.046
-0.037
-0.034
-0.03
-0.028
-0.026
-0.026
-0.026
-0.025
-0.029
-0.025
-0.028
-0.034
-0.043
-0.052
-0.064
-0.084
-0.095
-0.101
-0.107
-0.114
-0.125
-0.13
-0.14
-0.146
-0.151
-0.158
-0.156
-0.16
-0.163
-0.17
-0.17
-0.168
-0.169
-0.169
-0.177
-0.18
-0.188
-0.19
-0.195
-0.194
-0.189
-0.185
-0.18
-0.176
-0.146
-0.1
-0.024
0.076
0.176
0.261
0.315
0.318
0.292
0.217
0.124
0.035
-0.04
-0.096
-0.145
-0.189
-0.223
-0.25
-0.26
-0.268
-0.275
-0.281
-0.289
-0.295
-0.306
-0.316
-0.328
-0.335
-0.343
-0.346
-0.356
-0.364
-0.37
-0.381
-0.39
-0.401
-0.414
-0.421
-0.436
-0.44
-0.453
-0.46
-0.476
-0.485
-0.484
-0.479
-0.475
-0.484
-0.477
-0.474
-0.465
-0.465
-0.456
-0.45
-0.439
-0.417
-0.405
-0.375
-0.346
-0.314
-0.292
-0.271
-0.247
-0.225
-0.203
-0.188
-0.169
-0.149
-0.126
-0.107
-0.084
-0.06
-0.039
-0.021
-0.005
0.009
0.022
0.034
0.04
0.04
0.039
0.043
0.04
0.039
0.035
0.034
0.036
0.036
0.037
0.036
0.041
0.039
0.04
0.039
0.039
0.036
0.03
0.03
0.026
0.025
0.022
0.02
0.02
0.02
0.028
0.021
0.021
0.02
0.02
0.015
0.013
0.011
0.007
0.006
0.004
0.004
0.005
0.004
-0.003
-0.005
-0.005
-0.003
-0.001
-0.005
-0.007
-0.007
-0.005
-0.003
-0.005
-0.001
-0.003
-0.005
-0.007
-0.007
-0.003
-0.009
-0.01
-0.011
-0.006
-0.004
0.004
0.009
0.018
0.025
0.029
0.026
0.025
0.029
0.037
0.045
0.044
0.04
0.04
0.041
0.043
0.039
0.036
0.029
0.02
0.009
0.004
-0.001
-0.009
-0.014
-0.025
-0.031
-0.036
-0.043
-0.048
-0.046
-0.045
-0.04
-0.041
-0.04
-0.041
-0.048
-0.058
-0.064
-0.065
-0.064
-0.071
-0.069
-0.062
-0.052
-0.049
-0.037
-0.004
0.05
0.144
0.241
0.349
0.425
0.472
0.475
0.44
0.371
0.271
0.179
0.101
0.04
-0.006
-0.045
-0.079
-0.109
-0.125
-0.135
-0.149
-0.158
-0.166
-0.169
-0.182
-0.189
-0.191
-0.194
-0.193
-0.198
-0.2
-0.21
-0.21
-0.212
-0.216
-0.219
-0.223
-0.22
-0.225
-0.231
-0.241
-0.242
-0.249
-0.259
-0.265
-0.271
-0.27
-0.275
-0.274
-0.271
-0.264
-0.258
-0.255
-0.254
-0.254
-0.251
-0.253
-0.247
-0.236
-0.226
-0.217
-0.21
-0.196
-0.182
-0.168
-0.158
-0.141
-0.122
-0.104
-0.094
-0.081
-0.066
-0.05
-0.035
-0.026
-0.016
-0.018
-0.016
-0.015
-0.016
-0.018
-0.019
-0.024
-0.035
-0.044
-0.05
-0.054
-0.059
-0.065
-0.068
-0.07
-0.072
-0.077
-0.08
-0.079
-0.077
-0.077
-0.074
-0.064
-0.061
-0.061
-0.064
-0.065
-0.061
-0.052
-0.048
-0.049
-0.049
-0.051
-0.051
-0.054
-0.054
-0.049
-0.045
-0.045
-0.05
-0.049
-0.049
-0.052
-0.058
-0.056
-0.055
-0.06
-0.062
-0.06
-0.054
-0.049
-0.045
-0.044
-0.035
-0.028
-0.022
-0.02
-0.016
-0.007
-0.003
0.005
0.013
0.022
0.029
0.04
0.051
0.065
0.085
0.094
0.104
0.109
0.117
0.124
0.134
0.142
0.141
0.149
0.149
0.147
0.144
0.14
0.138
0.121
0.115
0.111
0.11
0.101
0.092
0.087
0.089
0.087
0.081
0.075
0.071
0.07
0.066
0.064
0.064
0.062
0.065
0.06
0.061
0.061
0.07
0.076
0.076
0.079
0.086
0.095
0.105
0.131
0.188
0.276
0.384
0.497
0.588
0.649
0.675
0.65
0.601
0.509
0.429
0.349
0.284
0.231
0.189
0.159
0.126
0.109
0.09
0.079
0.064
0.048
0.039
0.028
0.024
0.019
0.02
0.021
0.024
0.02
0.011
0.007
0.003
-0.001
-0.009
-0.015
-0.022
-0.026
-0.028
-0.037
-0.044
-0.046
-0.052
-0.058
-0.06
-0.056
-0.065
-0.069
-0.072
-0.07
-0.062
-0.06
-0.056
-0.054
-0.043
-0.03
-0.02
-0.009
0.005
0.02
0.031
0.039
0.048
0.062
0.077
0.092
0.102
0.124
0.14
0.154
0.166
0.185
0.204
0.214
0.225
0.23
0.241
0.24
0.237
0.23
0.225
0.223
0.217
0.215
0.205
0.205
0.204
0.201
0.196
0.19
0.196
0.195
0.199
0.199
0.203
0.204
0.2
0.199
0.189
0.19
0.189
0.191
0.19
0.193
0.195
0.193
0.194
0.191
0.196
0.193
0.194
0.189
0.193
0.196
0.188
0.19
0.191
0.2
0.2
0.195
0.196
0.19
0.198
0.193
0.194
0.188
0.188
0.184
0.18
0.18
0.18
0.185
0.179
0.179
0.174
0.176
0.174
0.168
0.168
0.168
0.166
0.159
0.163
0.166
0.171
0.174
0.175
0.177
0.18
0.188
0.189
0.2
0.21
0.221
0.223
0.223
0.23
0.237
0.247
0.245
0.242
0.239
0.235
0.23
0.22
0.22
0.214
0.211
0.199
0.19
0.18
0.172
0.168
0.156
0.156
0.152
0.147
0.139
0.134
0.134
0.12
0.116
0.11
0.109
0.104
0.102
0.101
0.104
0.107
0.104
0.11
0.115
0.128
0.138
0.156
0.186
0.235
0.314
0.405
0.511
0.578
0.63
0.635
0.608
0.55
0.463
0.399
0.338
0.294
0.249
0.215
0.189
0.169
0.155
0.145
0.142
0.136
0.135
0.13
0.128
0.125
0.124
0.128
0.133
0.138
0.135
0.134
0.125
0.12
0.11
0.101
0.094
0.084
0.084
0.079
0.071
0.064
0.058
0.049
0.036
0.031
0.03
0.037
0.04
0.039
0.039
0.046
0.064
0.07
0.074
0.066
0.059
0.054
0.05
0.058
0.055
0.06
0.059
0.06
0.062
0.077
0.09
0.099
0.109
0.117
0.131
0.145
0.164
0.175
0.189
0.196
0.194
0.198
0.195
0.201
0.194
0.194
0.195
0.191
0.184
0.169
0.155
0.141
0.136
0.129
0.117
0.11
0.101
0.091
0.079
0.071
0.064
0.061
0.054
0.046
0.043
0.039
0.035
0.025
0.018
0.01
0.003
-0.005
-0.009
-0.015
-0.016
-0.022
-0.039
-0.051
-0.062
-0.069
-0.079
-0.086
-0.098
-0.11
-0.119
-0.126
-0.133
-0.139
-0.146
-0.155
-0.163
-0.169
-0.174
-0.18
-0.182
-0.189
-0.189
-0.193
-0.19
-0.2
-0.206
-0.211
-0.224
-0.236
-0.245
-0.242
-0.245
-0.25
-0.255
-0.264
-0.266
-0.276
-0.276
-0.275
-0.266
-0.268
-0.276
-0.281
-0.289
-0.282
-0.289
-0.292
-0.305
-0.311
-0.32
-0.335
-0.351
-0.372
-0.388
-0.414
-0.431
-0.445
-0.455
-0.465
-0.49
-0.507
-0.531
-0.537
-0.55
-0.55
-0.551
-0.556
-0.56
-0.571
-0.573
-0.58
-0.574
-0.569
-0.566
-0.561
-0.561
-0.556
-0.556
-0.54
-0.529
-0.511
-0.491
-0.451
-0.394
-0.306
-0.198
-0.081
0.014
0.068
0.074
0.031
-0.059
-0.165
-0.26
-0.325
-0.389
-0.436
-0.481
-0.516
-0.54
-0.559
-0.556
-0.562
-0.56
-0.57
-0.566
-0.573
-0.578
-0.576
-0.586
-0.578
-0.584
-0.576
-0.586
-0.593
-0.599
-0.608
-0.61
-0.632
-0.636
-0.656
-0.661
-0.676
-0.684
-0.688
-0.704
-0.706
-0.728
-0.723
-0.736
-0.736
-0.741
-0.743
-0.734
-0.736
-0.726
-0.734
-0.725
-0.728
-0.718
-0.706
-0.7
-0.686
-0.685
-0.664
-0.652
-0.624
-0.605
-0.586
-0.564
-0.546
-0.524
-0.51
-0.485
-0.469
-0.45
-0.44
-0.43
-0.427
-0.43
-0.422
-0.424
-0.417
-0.415
-0.409
-0.407
-0.409
-0.4
-0.398
-0.39
-0.39
-0.381
-0.366
-0.351
-0.343
-0.339
-0.329
-0.326
-0.318
-0.314
-0.297
-0.287
-0.28
-0.276
-0.289
-0.292
-0.295
-0.28
-0.271
-0.255
-0.244
-0.239
-0.239
-0.25
-0.25
-0.25
-0.246
-0.255
-0.259
-0.264
-0.269
-0.27
-0.276
-0.276
-0.281
-0.286
-0.292
-0.3
-0.299
-0.304
-0.304
-0.301
-0.292
-0.292
-0.292
-0.299
-0.301
-0.302
-0.299
-0.289
-0.286
-0.276
-0.27
-0.264
-0.254
-0.24
-0.223
-0.209
-0.198
-0.189
-0.176
-0.163
-0.145
-0.14
-0.136
-0.134
-0.135
-0.138
-0.14
-0.142
-0.156
-0.17
-0.175
-0.174
-0.174
-0.188
-0.203
-0.212
-0.209
-0.206
-0.206
-0.212
-0.22
-0.224
-0.226
-0.225
-0.231
-0.235
-0.241
-0.25
-0.242
-0.241
-0.234
-0.242
-0.24
-0.236
-0.231
-0.225
-0.211
-0.169
-0.096
0.011
0.135
0.249
0.338
0.385
0.381
0.343
0.251
0.156
0.066
0
-0.051
-0.091
-0.121
-0.147
-0.16
-0.166
-0.171
-0.179
-0.184
-0.184
-0.185
-0.185
-0.185
-0.185
-0.182
-0.185
-0.193
-0.198
-0.199
-0.195
-0.196
-0.198
-0.199
-0.193
-0.185
-0.182
-0.188
-0.188
-0.182
-0.182
-0.182
-0.18
-0.171
-0.171
-0.17
-0.166
-0.163
-0.156
-0.152
-0.142
-0.135
-0.126
-0.121
-0.119
-0.11
-0.1
-0.084
-0.065
-0.048
-0.034
-0.016
-0.001
0.011
0.019
0.031
0.045
0.056
0.069
0.081
0.094
0.1
0.109
0.109
0.115
0.122
0.126
0.126
0.125
0.125
0.122
0.122
0.119
0.121
0.122
0.125
0.124
0.128
0.134
0.134
0.141
0.147
0.154
0.156
0.159
0.168
0.168
0.174
0.175
0.18
0.182
0.189
0.193
0.195
0.198
0.193
0.196
0.189
0.182
0.181
0.189
0.196
0.189
0.198
0.205
0.219
0.217
0.22
0.229
0.224
0.228
0.22
0.221
0.215
0.22
0.223
0.224
0.23
0.225
0.228
0.221
0.226
0.223
0.224
0.22
0.215
0.214
0.21
0.212
0.206
0.209
0.207
0.211
0.212
0.217
0.224
0.224
0.231
0.233
0.241
0.247
0.251
0.258
0.264
0.271
0.268
0.268
0.265
0.276
0.289
0.295
0.299
0.304
0.309
0.3
0.3
0.295
0.292
0.287
0.281
0.284
0.279
0.282
0.274
0.27
0.264
0.266
0.269
0.264
0.269
0.27
0.281
0.282
0.287
0.289
0.292
0.3
0.295
0.302
0.304
0.309
0.305
0.311
0.323
0.325
0.339
0.354
0.407
0.476
0.584
0.675
0.756
0.797
0.791
0.757
0.666
0.578
0.486
0.422
0.364
0.311
0.271
0.234
0.211
0.188
0.177
0.165
0.155
0.149
0.144
0.141
0.138
0.136
0.13
0.129
0.13
0.128
0.12
0.113
0.111
0.105
0.106
0.1
0.102
0.101
0.096
0.087
0.076
0.071
0.068
0.064
0.061
0.058
0.051
0.044
0.04
0.031
0.031
0.03
0.026
0.024
0.028
0.037
0.035
0.037
0.04
0.045
0.05
0.056
0.062
0.068
0.079
0.084
0.092
0.1
0.116
0.125
0.14
0.155
0.164
0.176
0.18
0.19
0.193
0.2
0.203
0.198
0.198
0.194
0.194
0.186
0.182
0.176
0.176
0.175
0.169
0.166
0.164
0.168
0.165
0.169
0.17
0.177
0.182
0.185
0.19
0.191
0.196
0.194
0.199
0.204
0.207
0.209
0.212
0.224
0.228
0.24
0.245
0.258
0.265
0.274
0.279
0.287
0.302
0.314
0.329
0.335
0.344
0.356
0.364
0.378
0.378
0.391
0.393
0.399
0.4
0.406
0.416
0.411
0.419
0.417
0.426
0.427
0.436
0.44
0.444
0.451
0.446
0.451
0.446
0.456
0.45
0.455
0.459
0.455
0.455
0.444
0.449
0.446
0.46
0.46
0.459
0.461
0.463
0.47
0.466
0.477
0.472
0.475
0.468
0.466
0.466
0.455
0.448
0.425
0.417
0.398
0.385
0.362
0.344
0.331
0.318
0.309
0.292
0.284
0.269
0.253
0.236
0.226
0.228
0.214
0.207
0.198
0.195
0.191
0.182
0.171
0.158
0.152
0.147
0.144
0.14
0.135
0.125
0.114
0.11
0.111
0.125
0.144
0.188
0.249
0.339
0.436
0.506
0.565
0.574
0.564
0.495
0.404
0.324
0.245
0.179
0.11
0.055
0.013
-0.015
-0.039
-0.062
-0.083
-0.1
-0.113
-0.125
-0.134
-0.135
-0.136
-0.141
-0.152
-0.161
-0.168
-0.176
-0.188
-0.199
-0.206
-0.215
-0.221
-0.23
-0.236
-0.242
-0.25
-0.263
-0.278
-0.286
-0.3
-0.316
-0.33
-0.336
-0.333
-0.336
-0.339
-0.345
-0.34
-0.335
-0.331
-0.323
-0.315
-0.305
-0.295
-0.28
-0.26
-0.233
-0.205
-0.175
-0.158
-0.14
-0.121
-0.105
-0.092
-0.08
-0.066
-0.054
-0.043