-0.205
-0.215
-0.22
-0.225
-0.215
-0.215
-0.235
-0.235
-0.245
-0.24
-0.19
-0.125
-0.06
-0.055
-0.045
0.025
0.12
0.215
0.27
0.3
0.38
0.51
0.735
1.025
1.28
1.485
1.555
1.58
1.635
1.7
1.71
1.655
1.545
1.41
1.235
1.085
0.89
0.675
0.435
0.195
0.005
-0.16
-0.315
-0.39
-0.45
-0.465
-0.48
-0.49
-0.525
-0.54
-0.565
-0.575
-0.58
-0.585
-0.595
-0.61
-0.62
-0.64
-0.65
-0.63
-0.615
-0.64
-0.65
-0.675
-0.655
-0.65
-0.645
-0.665
-0.68
-0.67
-0.665
-0.645
-0.645
-0.64
-0.645
-0.63
-0.62
-0.585
-0.575
-0.57
-0.585
-0.575
-0.555
-0.535
-0.505
-0.505
-0.54
-0.52
-0.505
-0.47
-0.47
-0.465
-0.48
-0.48
-0.445
-0.435
-0.41
-0.4
-0.415
-0.415
-0.39
-0.35
-0.335
-0.33
-0.34
-0.315
-0.285
-0.285
-0.285
-0.285
-0.29
-0.31
-0.305
-0.295
-0.3
-0.32
-0.345
-0.35
-0.34
-0.34
-0.345
-0.37
-0.38
-0.385
-0.39
-0.39
-0.39
-0.4
-0.4
-0.4
-0.395
-0.375
-0.37
-0.375
-0.4
-0.415
-0.41
-0.385
-0.37
-0.375
-0.405
-0.4
-0.375
-0.35
-0.35
-0.36
-0.365
-0.35
-0.34
-0.34
-0.355
-0.37
-0.39
-0.4
-0.42
-0.435
-0.42
-0.455
-0.48
-0.505
-0.49
-0.48
-0.475
-0.51
-0.525
-0.515
-0.5
-0.49
-0.5
-0.52
-0.52
-0.53
-0.525
-0.525
-0.53
-0.545
-0.535
-0.545
-0.545
-0.515
-0.52
-0.52
-0.55
-0.55
-0.545
-0.52
-0.525
-0.56
-0.57
-0.575
-0.565
-0.555
-0.545
-0.57
-0.56
-0.555
-0.545
-0.53
-0.52
-0.525
-0.545
-0.55
-0.53
-0.52
-0.505
-0.525
-0.555
-0.53
-0.515
-0.51
-0.53
-0.52
-0.52
-0.525
-0.54
-0.535
-0.53
-0.55
-0.55
-0.545
-0.535
-0.53
-0.52
-0.53
-0.53
-0.53
-0.535
-0.54
-0.555
-0.545
-0.555
-0.58
-0.58
-0.555
-0.555
-0.58
-0.595
-0.605
-0.585
-0.595
-0.59
-0.62
-0.605
-0.62
-0.61
-0.595
-0.6
-0.61
-0.625
-0.62
-0.58
-0.57
-0.575
-0.58
-0.58
-0.58
-0.565
-0.555
-0.545
-0.57
-0.575
-0.575
-0.55
-0.475
-0.42
-0.405
-0.375
-0.31
-0.2
-0.105
-0.045
0.035
0.125
0.28
0.565
0.915
1.185
1.315
1.355
1.405
1.465
1.52
1.47
1.385
1.21
1
0.78
0.555
0.31
0.005
-0.245
-0.45
-0.59
-0.7
-0.76
-0.795
-0.805
-0.82
-0.84
-0.84
-0.855
-0.87
-0.895
-0.91
-0.92
-0.9
-0.905
-0.925
-0.94
-0.935
-0.925
-0.905
-0.905
-0.9
-0.915
-0.915
-0.905
-0.885
-0.87
-0.88
-0.88
-0.885
-0.87
-0.845
-0.845
-0.85
-0.855
-0.85
-0.845
-0.835
-0.825
-0.815
-0.815
-0.81
-0.8
-0.785
-0.765
-0.775
-0.79
-0.79
-0.79
-0.755
-0.73
-0.73
-0.74
-0.72
-0.69
-0.655
-0.65
-0.67
-0.665
-0.63
-0.6
-0.57
-0.55
-0.56
-0.545
-0.53
-0.5
-0.475
-0.47
-0.455
-0.445
-0.43
-0.435
-0.405
-0.4
-0.405
-0.415
-0.425
-0.425
-0.4
-0.4
-0.425
-0.45
-0.465
-0.445
-0.45
-0.46
-0.5
-0.5
-0.505
-0.505
-0.495
-0.52
-0.54
-0.555
-0.555
-0.535
-0.52
-0.51
-0.53
-0.54
-0.565
-0.555
-0.52
-0.52
-0.55
-0.55
-0.56
-0.52
-0.52
-0.53
-0.56
-0.555
-0.56
-0.55
-0.55
-0.55
-0.555
-0.56
-0.57
-0.555
-0.54
-0.52
-0.535
-0.565
-0.53
-0.515
-0.5
-0.51
-0.52
-0.525
-0.525
-0.53
-0.505
-0.505
-0.515
-0.52
-0.515
-0.515
-0.49
-0.495
-0.51
-0.525
-0.51
-0.495
-0.485
-0.5
-0.505
-0.5
-0.505
-0.51
-0.485
-0.47
-0.49
-0.5
-0.49
-0.465
-0.455
-0.465
-0.465
-0.47
-0.46
-0.45
-0.44
-0.425
-0.43
-0.44
-0.435
-0.41
-0.4
-0.395
-0.42
-0.42
-0.415
-0.405
-0.405
-0.395
-0.385
-0.405
-0.42
-0.385
-0.365
-0.39
-0.395
-0.405
-0.395
-0.385
-0.38
-0.385
-0.395
-0.4
-0.405
-0.4
-0.36
-0.355
-0.375
-0.38
-0.365
-0.35
-0.335
-0.345
-0.355
-0.36
-0.365
-0.35
-0.345
-0.335
-0.35
-0.365
-0.37
-0.35
-0.33
-0.33
-0.33
-0.33
-0.32
-0.29
-0.285
-0.265
-0.27
-0.29
-0.295
-0.265
-0.24
-0.225
-0.25
-0.26
-0.225
-0.21
-0.165
-0.11
-0.06
-0.04
-0.005
0.06
0.18
0.275
0.31
0.325
0.41
0.54
0.73
0.98
1.26
1.47
1.635
1.715
1.74
1.78
1.83
1.855
1.825
1.795
1.73
1.58
1.395
1.22
1.03
0.85
0.66
0.435
0.19
0
-0.15
-0.29
-0.365
-0.395
-0.435
-0.455
-0.475
-0.475
-0.48
-0.49
-0.515
-0.525
-0.515
-0.51
-0.495
-0.515
-0.51
-0.525
-0.53
-0.53
-0.52
-0.52
-0.525
-0.535
-0.535
-0.51
-0.485
-0.48
-0.48
-0.485
-0.485
-0.46
-0.465
-0.465
-0.455
-0.45
-0.44
-0.445
-0.425
-0.43
-0.43
-0.455
-0.45
-0.435
-0.405
-0.415
-0.435
-0.455
-0.425
-0.405
-0.385
-0.37
-0.36
-0.355
-0.36
-0.345
-0.31
-0.29
-0.3
-0.295
-0.28
-0.23
-0.205
-0.195
-0.185
-0.18
-0.14
-0.115
-0.1
-0.075
-0.06
-0.05
-0.05
-0.03
0.01
0.005
-0.005
-0.015
-0.005
0.01
0
0
-0.01
-0.015
-0.015
-0.01
-0.02
0
-0.005
-0.025
-0.03
-0.02
-0.005
-0.015
-0.025
-0.04
-0.035
-0.03
-0.03
-0.035
-0.055
-0.08
-0.09
-0.095
-0.065
-0.08
-0.11
-0.135
-0.145
-0.14
-0.13
-0.155
-0.17
-0.18
-0.17
-0.155
-0.115
-0.105
-0.11
-0.14
-0.115
-0.095
-0.055
-0.07
-0.075
-0.075
-0.06
-0.055
-0.04
-0.03
-0.015
-0.015
-0.02
0
0.04
0.04
0.015
0.01
0.02
0.035
0.05
0.055
0.055
0.045
0.045
0.04
0.065
0.065
0.055
0.03
0.03
0.055
0.06
0.06
0.045
0.045
0.04
0.045
0.06
0.055
0.045
0.02
0.015
0.025
0.055
0.045
0.03
0.01
0.02
0.035
0.045
0.025
0.005
0
0.005
0.005
-0.005
0.015
0.01
0
-0.005
-0.015
0
0.015
0.01
-0.01
-0.01
-0.015
0.015
0.02
0
-0.005
-0.01
0.005
0.03
0.025
0.015
0.015
0.025
0.05
0.03
0.035
0.03
0.025
0.005
0.005
0.05
0.06
0.04
0.025
0.02
0.055
0.075
0.055
0.04
0.04
0.05
0.045
0.055
0.075
0.08
0.075
0.06
0.05
0.075
0.085
0.065
0.04
0.045
0.065
0.065
0.05
0.025
0.015
0.02
0.02
0.025
0.02
0.02
0.005
0.015
0.035
0.065
0.065
0.045
0.03
0.03
0.045
0.055
0.065
0.055
0.055
0.055
0.075
0.09
0.095
0.085
0.07
0.065
0.09
0.105
0.1
0.105
0.105
0.09
0.095
0.12
0.135
0.115
0.1
0.095
0.125
0.125
0.11
0.115
0.08
0.075
0.09
0.13
0.175
0.22
0.265
0.3
0.36
0.46
0.55
0.61
0.68
0.755
0.86
1.04
1.325
1.605
1.775
1.915
1.955
2.005
2.06
2.05
2
1.935
1.805
1.61
1.385
1.175
0.93
0.66
0.435
0.265
0.09
-0.06
-0.11
-0.135
-0.125
-0.15
-0.19
-0.225
-0.255
-0.265
-0.26
-0.245
-0.275
-0.29
-0.315
-0.305
-0.295
-0.285
-0.285
-0.295
-0.31
-0.305
-0.295
-0.28
-0.285
-0.305
-0.315
-0.305
-0.27
-0.26
-0.265
-0.245
-0.26
-0.26
-0.25
-0.22
-0.21
-0.235
-0.25
-0.235
-0.21
-0.2
-0.205
-0.21
-0.2
-0.19
-0.165
-0.15
-0.16
-0.165
-0.165
-0.165
-0.165
-0.135
-0.1
-0.095
-0.105
-0.095
-0.065
-0.03
-0.005
0
0.005
0.04
0.08
0.12
0.13
0.125
0.15
0.165
0.175
0.165
0.19
0.18
0.15
0.155
0.175
0.19
0.18
0.14
0.14
0.14
0.145
0.155
0.15
0.155
0.175
0.155
0.14
0.135
0.135
0.13
0.11
0.12
0.14
0.155
0.145
0.13
0.135
0.125
0.12
0.12
0.115
0.09
0.08
0.07
0.09
0.1
0.1
0.075
0.055
0.05
0.065
0.07
0.08
0.055
0.045
0.045
0.05
0.055
0.055
0.055
0.03
0.04
0.035
0.045
0.055
0.045
0.035
0.035
0.035
0.05
0.06
0.065
0.05
0.05
0.05
0.09
0.105
0.105
0.09
0.1
0.145
0.165
0.165
0.17
0.145
0.16
0.17
0.19
0.205
0.17
0.15
0.145
0.155
0.165
0.16
0.155
0.14
0.11
0.12
0.11
0.095
0.06
0.055
0.055
0.06
0.06
0.07
0.06
0.06
0.065
0.065
0.09
0.075
0.07
0.1
0.165
0.225
0.285
0.35
0.45
0.56
0.64
0.755
0.895
1.05
1.27
1.52
1.79
2.015
2.1
2.115
2.125
2.14
2.1
2.04
1.905
1.695
1.455
1.23
0.99
0.72
0.495
0.29
0.08
-0.05
-0.115
-0.1
-0.085
-0.11
-0.145
-0.19
-0.19
-0.2
-0.215
-0.215
-0.23
-0.26
-0.29
-0.28
-0.255
-0.255
-0.275
-0.3
-0.32
-0.29
-0.29
-0.295
-0.315
-0.33
-0.3
-0.29
-0.285
-0.26
-0.26
-0.255
-0.255
-0.24
-0.21
-0.205
-0.215
-0.23
-0.205
-0.17
-0.14
-0.125
-0.13
-0.11
-0.095
-0.06
-0.055
-0.06
-0.04
-0.045
-0.04
-0.02
0.005
0.02
0.025
0.03
0.035
0.06
0.1
0.105
0.095
0.125
0.155
0.185
0.195
0.205
0.22
0.24
0.245
0.25
0.255
0.255
0.24
0.22
0.21
0.205
0.23
0.215
0.16
0.145
0.15
0.135
0.125
0.11
0.1
0.07
0.07
0.055
0.075
0.075
0.06
0.03
0.045
0.045
0.05
0.055
0.055
0.04
0.04
0.045
0.04
0.045
0.015
0
0.01
0.025
0.035
0.015
0.005
-0.01
0.005
0.025
0.04
0.05
0.025
0.01
0.02
0.04
0.06
0.07
0.075
0.09
0.095
0.095
0.115
0.115
0.105
0.1
0.095
0.095
0.135
0.135
0.17
0.23
0.33
0.395
0.47
0.525
0.535
0.54
0.595
0.76
1.03
1.295
1.51
1.66
1.745
1.84
1.905
1.895
1.84
1.75
1.605
1.455
1.325
1.13
0.89
0.63
0.435
0.24
0.075
-0.025
-0.045
-0.075
-0.105
-0.12
-0.14
-0.18
-0.22
-0.245
-0.245
-0.26
-0.255
-0.25
-0.265
-0.285
-0.295
-0.28
-0.26
-0.275
-0.295
-0.305
-0.305
-0.295
-0.27
-0.26
-0.28
-0.295
-0.285
-0.265
-0.235
-0.23
-0.245
-0.225
-0.205
-0.19
-0.18
-0.165
-0.14
-0.145
-0.135
-0.13
-0.09
-0.075
-0.095
-0.095
-0.075
-0.04
-0.005
-0.005
-0.01
0
0.02
0.035
0.05
0.065
0.09
0.09
0.1
0.14
0.17
0.175
0.17
0.155
0.16
0.175
0.16
0.165
0.145
0.135
0.115
0.11
0.115
0.095
0.075
0.05
0.05
0.06
0.075
0.065
0.05
0.035
0.055
0.05
0.065
0.06
0.06
0.055
0.045
0.065
0.07
0.07
0.06
0.05
0.03
0.055
0.065
0.065
0.075
0.065
0.08
0.07
0.085
0.1
0.08
0.055
0.04
0.06
0.055
0.065
0.015
0.005
0.005
0.015
0.02
0.005
0.025
0.015
0
0.02
0.035
0.035
0.02
0.005
0.01
0.03
0.035
0.03
0.03
0.02
0.01
0.03
0.045
0.045
0.015
-0.005
0
0.02
0.035
0.02
0.015
0.015
0.01
0.015
0.03
0.035
0.02
-0.005
-0.01
0.005
0.025
0.025
0.03
0.005
0.025
0.04
0.045
0.05
0.035
0.02
0.025
0.04
0.05
0.035
0.025
0.03
0.04
0.05
0.06
0.045
0.05
0.04
0.025
0.02
0.03
0.035
0.015
0
-0.01
0.02
0.015
0.015
0.005
-0.01
-0.015
-0.025
-0.015
-0.005
-0.03
-0.045
-0.035
-0.025
-0.015
-0.02
-0.03
-0.035
-0.015
-0.005
-0.005
0
-0.005
-0.03
-0.02
-0.005
0.02
0.005
-0.015
-0.01
-0.005
0.005
0.01
0.025
0.04
0.045
0.05
0.06
0.09
0.075
0.05
0.05
0.065
0.08
0.08
0.075
0.075
0.085
0.09
0.11
0.175
0.235
0.28
0.305
0.35
0.46
0.56
0.6
0.635
0.68
0.81
0.97
1.215
1.44
1.63
1.76
1.81
1.82
1.88
1.93
1.925
1.885
1.795
1.69
1.55
1.365
1.175
0.96
0.75
0.53
0.325
0.145
-0.04
-0.17
-0.205
-0.215
-0.225
-0.25
-0.285
-0.33
-0.365
-0.36
-0.345
-0.35
-0.375
-0.41
-0.41
-0.4
-0.39
-0.405
-0.435
-0.445
-0.44
-0.42
-0.395
-0.405
-0.42
-0.44
-0.465
-0.44
-0.415
-0.42
-0.46
-0.47
-0.465
-0.435
-0.425
-0.43
-0.435
-0.45
-0.455
-0.44
-0.42
-0.425
-0.44
-0.45
-0.43
-0.41
-0.4
-0.405
-0.4
-0.405
-0.4
-0.39
-0.355
-0.345
-0.355
-0.37
-0.36
-0.325
-0.29
-0.27
-0.29
-0.275
-0.25
-0.225
-0.18
-0.16
-0.14
-0.135
-0.105
-0.085
-0.06
-0.08
-0.085
-0.07
-0.07
-0.07
-0.035
-0.045
-0.055
-0.06
-0.055
-0.045
-0.03
-0.05
-0.05
-0.05
-0.05
-0.06
-0.06
-0.045
-0.05
-0.085
-0.065
-0.04
-0.035
-0.055
-0.07
-0.08
-0.08
-0.09
-0.085
-0.08
-0.095
-0.12
-0.12
-0.105
-0.085
-0.1
-0.115
-0.125
-0.11
-0.1
-0.105
-0.09
-0.11
-0.13
-0.14
-0.14
-0.135
-0.165
-0.175
-0.195
-0.2
-0.19
-0.165
-0.165
-0.17
-0.165
-0.17
-0.125
-0.105
-0.11
-0.12
-0.115
-0.11
-0.115
-0.105
-0.1
-0.11
-0.13
-0.13
-0.115
-0.1
-0.125
-0.145
-0.155
-0.15
-0.155
-0.15
-0.16
-0.17
-0.18
-0.18
-0.195
-0.155
-0.17
-0.185
-0.21
-0.215
-0.195
-0.18
-0.19
-0.215
-0.22
-0.215
-0.21
-0.205
-0.235
-0.225
-0.23
-0.23
-0.235
-0.22
-0.21
-0.225
-0.24
-0.245
-0.22
-0.205
-0.22
-0.26
-0.28
-0.265
-0.265
-0.27
-0.3
-0.305
-0.31
-0.305
-0.295
-0.27
-0.27
-0.285
-0.3
-0.28
-0.25
-0.24
-0.255
-0.26
-0.245
-0.25
-0.25
-0.225
-0.23
-0.24
-0.25
-0.25
-0.215
-0.21
-0.22
-0.24
-0.245
-0.245
-0.235
-0.225
-0.225
-0.23
-0.245
-0.255
-0.265
-0.2
-0.16
-0.1
-0.055
-0.01
0.105
0.225
0.31
0.38
0.46
0.6
0.855
1.16
1.405
1.56
1.585
1.625
1.685
1.71
1.65
1.545
1.355
1.125
0.915
0.715
0.445
0.165
-0.06
-0.245
-0.38
-0.45
-0.475
-0.48
-0.525
-0.565
-0.575
-0.57
-0.585
-0.625
-0.64
-0.66
-0.645
-0.63
-0.64
-0.66
-0.695
-0.69
-0.685
-0.65
-0.655
-0.67
-0.71
-0.71
-0.675
-0.675
-0.69
-0.69
-0.68
-0.675
-0.68
-0.65
-0.64
-0.67
-0.675
-0.67
-0.65
-0.635
-0.635
-0.64
-0.645
-0.645
-0.62
-0.585
-0.56
-0.58
-0.585
-0.565
-0.555
-0.525
-0.53
-0.52
-0.5
-0.495
-0.47
-0.445
-0.42
-0.415
-0.4
-0.375
-0.32
-0.315
-0.295
-0.3
-0.29
-0.29
-0.285
-0.3
-0.305
-0.305
-0.31
-0.325
-0.33
-0.31
-0.31
-0.325
-0.36
-0.365
-0.355
-0.34
-0.34
-0.375
-0.39
-0.375
-0.365
-0.35
-0.355
-0.37
-0.385
-0.375
-0.365
-0.365
-0.36
-0.36
-0.385
-0.405
-0.39
-0.375
-0.38
-0.39
-0.395
-0.4
-0.375
-0.39
-0.4
-0.42
-0.435
-0.43
-0.41
-0.41
-0.435
-0.435
-0.44
-0.44
-0.44
-0.445
-0.45
-0.455
-0.455
-0.475
-0.455
-0.445
-0.44
-0.475
-0.49
-0.475
-0.47
-0.47
-0.48
-0.47
-0.465
-0.455
-0.455
-0.44
-0.43
-0.44
-0.46
-0.46
-0.44
-0.41
-0.42
-0.445
-0.455
-0.445
-0.44
-0.46
-0.45
-0.465
-0.475
-0.485
-0.485
-0.46
-0.465
-0.47
-0.485
-0.485
-0.475
-0.47
-0.475
-0.505
-0.505
-0.49
-0.49
-0.465
-0.475
-0.485
-0.485
-0.48
-0.465
-0.445
-0.44
-0.465
-0.485
-0.49
-0.46
-0.45
-0.45
-0.49
-0.495
-0.47
-0.475
-0.47
-0.45
-0.44
-0.455
-0.455
-0.43
-0.41
-0.41
-0.43
-0.425
-0.43
-0.405
-0.385
-0.38
-0.39
-0.395
-0.405
-0.4
-0.365
-0.335
-0.305
-0.26
-0.19
-0.08
0.02
0.125
0.195
0.31
0.435
0.645
0.91
1.205
1.41
1.51
1.565
1.62
1.665
1.655
1.59
1.475
1.265
1.065
0.895
0.68
0.415
0.1
-0.145
-0.33
-0.48
-0.605
-0.64
-0.63
-0.645
-0.67
-0.685
-0.695
-0.705
-0.735
-0.745
-0.73
-0.735
-0.73
-0.745
-0.74
-0.735
-0.74
-0.73
-0.735
-0.745
-0.75
-0.755
-0.75
-0.72
-0.73
-0.74
-0.77
-0.755
-0.72
-0.71
-0.73
-0.73
-0.725
-0.73
-0.71
-0.695
-0.685
-0.69
-0.705
-0.69
-0.665
-0.65
-0.655
-0.685
-0.68
-0.655
-0.625
-0.61
-0.625
-0.63
-0.63
-0.595
-0.58
-0.58
-0.57
-0.555
-0.555
-0.545
-0.53
-0.48
-0.445
-0.44
-0.42
-0.37
-0.34
-0.31
-0.31
-0.32
-0.31
-0.29
-0.275
-0.27
-0.295
-0.31
-0.315
-0.315
-0.32
-0.305
-0.305
-0.325
-0.345
-0.365
-0.345
-0.325
-0.34
-0.36
-0.37
-0.355
-0.34
-0.34
-0.345
-0.35
-0.355
-0.365
-0.37
-0.35
-0.34
-0.355
-0.395
-0.385
-0.38
-0.365
-0.375
-0.39
-0.4
-0.385
-0.37
-0.365
-0.38
-0.395
-0.39
-0.405
-0.395
-0.36
-0.39
-0.405
-0.42
-0.425
-0.41
-0.39
-0.4
-0.4
-0.4
-0.405
-0.375
-0.36
-0.335
-0.36
-0.375
-0.36
-0.33
-0.305
-0.32
-0.325
-0.335
-0.315
-0.305
-0.3
-0.295
-0.295
-0.305
-0.305
-0.29
-0.275
-0.29
-0.305
-0.325
-0.325
-0.3
-0.315
-0.31
-0.3
-0.32
-0.315
-0.32
-0.295
-0.29
-0.315
-0.32
-0.32
-0.305
-0.31
-0.325
-0.335
-0.32
-0.32
-0.31
-0.29
-0.295
-0.305
-0.325
-0.32
-0.315
-0.305
-0.315
-0.335
-0.33
-0.315
-0.305
-0.3
-0.29
-0.295
-0.315
-0.32
-0.32
-0.295
-0.32
-0.32
-0.31
-0.28
-0.26
-0.25
-0.245
-0.245
-0.255
-0.25
-0.235
-0.21
-0.205
-0.235
-0.255
-0.25
-0.23
-0.185
-0.145
-0.075
-0.015
0.01
0.1
0.19
0.265
0.33
0.38
0.455
0.6
0.825
1.085
1.32
1.495
1.625
1.69
1.725
1.76
1.775
1.765
1.74
1.68
1.555
1.36
1.17
0.995
0.815
0.595
0.365
0.13
-0.06
-0.23
-0.385
-0.475
-0.49
-0.475
-0.5
-0.545
-0.55
-0.545
-0.55
-0.565
-0.59
-0.585
-0.585
-0.56
-0.55
-0.555
-0.55
-0.54
-0.54
-0.53
-0.505
-0.49
-0.5
-0.525
-0.545
-0.545
-0.53
-0.545
-0.565
-0.585
-0.575
-0.545
-0.545
-0.555
-0.565
-0.56
-0.545
-0.55
-0.55
-0.545
-0.55
-0.555
-0.55
-0.54
-0.53
-0.535
-0.55
-0.555
-0.54
-0.52
-0.5
-0.505
-0.505
-0.5
-0.48
-0.495
-0.485
-0.47
-0.47
-0.475
-0.46
-0.425
-0.38
-0.37
-0.375
-0.365
-0.31
-0.28
-0.27
-0.24
-0.23
-0.225
-0.235
-0.205
-0.195
-0.195
-0.215
-0.215
-0.225
-0.185
-0.175
-0.18
-0.21
-0.2
-0.195
-0.2
-0.195
-0.205
-0.21
-0.225
-0.225
-0.22
-0.21
-0.205
-0.235
-0.245
-0.225
-0.215
-0.205
-0.215
-0.225
-0.23
-0.23
-0.225
-0.225
-0.215
-0.235
-0.265
-0.255
-0.25
-0.22
-0.235
-0.26
-0.27
-0.275
-0.26
-0.25
-0.26
-0.26
-0.285
-0.295
-0.285
-0.29
-0.29
-0.32
-0.32
-0.31
-0.27
-0.265
-0.265
-0.275
-0.275
-0.265
-0.255
-0.245
-0.245
-0.25
-0.24
-0.24
-0.23
-0.215
-0.205
-0.24
-0.24
-0.23
-0.205
-0.2
-0.215
-0.23
-0.25
-0.235
-0.22
-0.215
-0.21
-0.21
-0.22
-0.235
-0.22
-0.19
-0.195
-0.21
-0.215
-0.215
-0.19
-0.185
-0.18
-0.2
-0.2
-0.2
-0.215
-0.21
-0.19
-0.19
-0.165
-0.125
-0.08
-0.03
0.03
0.135
0.225
0.33
0.42
0.525
0.63
0.795
1.03
1.32
1.59
1.79
1.88
1.9
1.915
1.945
1.99
1.975
1.93
1.84
1.685
1.485
1.33
1.175
0.97
0.74
0.495
0.245
0.08
-0.06
-0.255
-0.38
-0.435
-0.415
-0.405
-0.425
-0.465
-0.505
-0.515
-0.54
-0.54
-0.545
-0.55
-0.565
-0.595
-0.595
-0.62
-0.595
-0.595
-0.615
-0.645
-0.65
-0.635
-0.615
-0.63
-0.64
-0.64
-0.63
-0.615
-0.61
-0.615
-0.61
-0.61
-0.605
-0.595
-0.575
-0.565
-0.575
-0.605
-0.57
-0.55
-0.53
-0.525
-0.54
-0.53
-0.51
-0.495
-0.465
-0.47
-0.445
-0.435
-0.415
-0.385
-0.355
-0.335
-0.365
-0.375
-0.355
-0.3
-0.29
-0.3
-0.31
-0.305
-0.275
-0.26
-0.225
-0.225
-0.215
-0.215
-0.215
-0.2
-0.18
-0.17
-0.2
-0.225
-0.205
-0.18
-0.175
-0.195
-0.205
-0.22
-0.22
-0.23
-0.22
-0.24
-0.245
-0.275
-0.285
-0.265
-0.26
-0.255
-0.295
-0.31
-0.295
-0.31
-0.295
-0.285
-0.31
-0.32
-0.325
-0.315
-0.305
-0.315
-0.32
-0.34
-0.32
-0.295
-0.305
-0.295
-0.275
-0.285
-0.265
-0.235
-0.23
-0.23
-0.235
-0.245
-0.24
-0.22
-0.21
-0.22
-0.24
-0.24
-0.22
-0.23
-0.215
-0.22
-0.23
-0.23
-0.23
-0.235
-0.195
-0.2
-0.21
-0.23
-0.23
-0.205
-0.205
-0.215
-0.23
-0.225
-0.235
-0.225
-0.205
-0.21
-0.225
-0.245
-0.25
-0.25
-0.23
-0.25
-0.265
-0.285
-0.29
-0.28
-0.27
-0.29
-0.305
-0.3
-0.29
-0.29
-0.28
-0.28
-0.275
-0.28
-0.29
-0.265
-0.25
-0.24
-0.255
-0.26
-0.26
-0.235
-0.205
-0.2
-0.225
-0.235
-0.23
-0.2
-0.185
-0.195
-0.205
-0.215
-0.205
-0.205
-0.21
-0.215
-0.235
-0.21
-0.215
-0.205
-0.2
-0.19
-0.19
-0.21
-0.21
-0.2
-0.18
-0.19
-0.2
-0.22
-0.205
-0.18
-0.175
-0.195
-0.205
-0.22
-0.21
-0.185
-0.175
-0.195
-0.21
-0.21
-0.22
-0.21
-0.195
-0.215
-0.22
-0.235
-0.245
-0.235
-0.21
-0.23
-0.26
-0.265
-0.26
-0.245
-0.245
-0.265
-0.29
-0.29
-0.27
-0.255
-0.24
-0.24
-0.24
-0.235
-0.23
-0.21
-0.19
-0.17
-0.175
-0.185
-0.2
-0.19
-0.165
-0.16
-0.19
-0.205
-0.185
-0.17
-0.16
-0.165
-0.175
-0.17
-0.17
-0.17
-0.15
-0.155
-0.155
-0.17
-0.18
-0.165
-0.13
-0.145
-0.155
-0.17
-0.17
-0.16
-0.15
-0.15
-0.18
-0.185
-0.195
-0.18
-0.18
-0.175
-0.18
-0.195
-0.21
-0.19
-0.16
-0.185
-0.2
-0.205
-0.185
-0.18
-0.18
-0.185
-0.175
-0.19
-0.19
-0.17
-0.14
-0.155
-0.16
-0.17
-0.165
-0.125
-0.105
-0.105
-0.12
-0.12
-0.105
-0.095
-0.095
-0.11
-0.12
-0.115
-0.07
-0.005
0.05
0.1
0.105
0.155
0.255
0.35
0.445
0.51
0.57
0.69
0.91
1.2
1.445
1.61
1.69
1.71
1.77
1.82
1.84
1.8
1.69
1.495
1.295
1.13
0.945
0.695
0.43
0.195
0.02
-0.13
-0.26
-0.33
-0.37
-0.4
-0.445
-0.435
-0.435
-0.475
-0.505
-0.52
-0.515
-0.52
-0.525
-0.55
-0.575
-0.565
-0.555
-0.555
-0.55
-0.56
-0.57
-0.565
-0.555
-0.535
-0.52
-0.51
-0.505
-0.53
-0.535
-0.515
-0.49
-0.5
-0.52
-0.535
-0.525
-0.51
-0.505
-0.52
-0.545
-0.545
-0.525
-0.51
-0.49
-0.51
-0.52
-0.52
-0.495
-0.475
-0.485
-0.485
-0.48
-0.5
-0.475
-0.475
-0.47
-0.465
-0.455
-0.46
-0.45
-0.43
-0.405
-0.39
-0.395
-0.4
-0.39
-0.365
-0.33
-0.335
-0.345
-0.335
-0.295
-0.25
-0.245
-0.25
-0.235
-0.22
-0.195
-0.19
-0.145
-0.14
-0.12
-0.135
-0.125
-0.11
-0.085
-0.07
-0.08
-0.09
-0.09
-0.075
-0.07
-0.075
-0.105
-0.095
-0.08
-0.07
-0.075
-0.065
-0.065
-0.075
-0.09
-0.09
-0.06
-0.08
-0.075
-0.1
-0.085
-0.08
-0.07
-0.095
-0.09
-0.09
-0.105
-0.075
-0.08
-0.07
-0.08
-0.115
-0.12
-0.105
-0.075
-0.085
-0.115
-0.145
-0.14
-0.13
-0.14
-0.155
-0.16
-0.17
-0.18
-0.165
-0.16
-0.16
-0.17
-0.175
-0.16
-0.15
-0.115
-0.135
-0.135
-0.115
-0.095
-0.085
-0.08
-0.07
-0.07
-0.085
-0.085
-0.085
-0.05
-0.065
-0.095
-0.09
-0.1
-0.095
-0.095
-0.095
-0.1
-0.105
-0.115
-0.125
-0.11
-0.135
-0.16
-0.17
-0.165
-0.17
-0.17
-0.19
-0.2
-0.21
-0.215
-0.205
-0.175
-0.2
-0.21
-0.235
-0.23
-0.23
-0.225
-0.25
-0.235
-0.265
-0.26
-0.235
-0.21
-0.23
-0.24
-0.275
-0.265
-0.245
-0.245
-0.27
-0.29
-0.285
-0.305
-0.265
-0.26
-0.25
-0.28
-0.29
-0.275
-0.245
-0.245
-0.26
-0.24
-0.21
-0.125
-0.075
-0.005
0.08
0.155
0.23
0.315
0.425
0.58
0.81
1.115
1.39
1.59
1.675
1.71
1.765
1.785
1.75
1.685
1.6
1.45
1.23
1.015
0.825
0.635
0.42
0.155
-0.085
-0.245
-0.41
-0.545
-0.595
-0.59
-0.595
-0.61
-0.635
-0.665
-0.68
-0.67
-0.7
-0.73
-0.745
-0.755
-0.76
-0.755
-0.77
-0.78
-0.8
-0.805
-0.8
-0.795
-0.805
-0.815
-0.82
-0.835
-0.825
-0.795
-0.795
-0.81
-0.81
-0.805
-0.785
-0.775
-0.775
-0.78
-0.785
-0.775
-0.765
-0.77
-0.75
-0.77
-0.77
-0.77
-0.72
-0.705
-0.705
-0.725
-0.725
-0.705
-0.69
-0.67
-0.66
-0.645
-0.655
-0.625
-0.605
-0.575
-0.565
-0.57
-0.57
-0.535
-0.51
-0.5
-0.48
-0.47
-0.475
-0.475
-0.465
-0.47
-0.465
-0.505
-0.53
-0.525
-0.505
-0.505
-0.525
-0.535
-0.57
-0.57
-0.555
-0.545
-0.57
-0.58
-0.605
-0.595
-0.565
-0.575
-0.595
-0.61
-0.6
-0.605
-0.59
-0.58
-0.605
-0.6
-0.645
-0.625
-0.625
-0.615
-0.64
-0.65
-0.655
-0.645
-0.65
-0.63
-0.635
-0.66
-0.64
-0.64
-0.63
-0.62
-0.62
-0.645
-0.655
-0.655
-0.65
-0.66
-0.67
-0.675
-0.695
-0.7
-0.68
-0.665
-0.68
-0.69
-0.7
-0.69
-0.675
-0.665
-0.68
-0.68
-0.69
-0.67
-0.665
-0.645
-0.65
-0.66
-0.665
-0.67
-0.635
-0.61
-0.635
-0.64
-0.64
-0.645
-0.63
-0.635
-0.645
-0.64
-0.655
-0.655
-0.64
-0.605
-0.61
-0.625
-0.635
-0.625
-0.61
-0.615
-0.62
-0.62
-0.63
-0.63
-0.63
-0.61
-0.62
-0.63
-0.635
-0.63
-0.62
-0.595
-0.605
-0.615
-0.64
-0.64
-0.625
-0.635
-0.64
-0.665
-0.66
-0.655
-0.64
-0.64
-0.64
-0.655
-0.655
-0.66
-0.645
-0.63
-0.62
-0.635
-0.65
-0.63
-0.63
-0.62
-0.625
-0.62
-0.645
-0.64
-0.61
-0.595
-0.585
-0.6
-0.6
-0.6
-0.565
-0.51
-0.455
-0.42
-0.375
-0.29
-0.19
-0.105
-0.025
0.045
0.135
0.26
0.465
0.785
1.09
1.295
1.395
1.455
1.525
1.55
1.52
1.46
1.33
1.1
0.865
0.655
0.42
0.165
-0.14
-0.355
-0.495
-0.615
-0.7
-0.725
-0.725
-0.73
-0.74
-0.76
-0.78
-0.8
-0.835
-0.85
-0.855
-0.83
-0.85
-0.88
-0.88
-0.885
-0.865
-0.87
-0.865
-0.865
-0.875
-0.85
-0.835
-0.795
-0.795
-0.815
-0.82
-0.805
-0.78
-0.77
-0.755
-0.76
-0.77
-0.765
-0.74
-0.74
-0.735
-0.75
-0.745
-0.735
-0.715
-0.73
-0.725
-0.73
-0.725
-0.72
-0.69
-0.665
-0.675
-0.68
-0.67
-0.65
-0.615
-0.6
-0.59
-0.565
-0.555
-0.52
-0.485
-0.44
-0.425
-0.425
-0.43
-0.405
-0.405
-0.385
-0.39
-0.38
-0.385
-0.38
-0.375
-0.365
-0.37
-0.41
-0.42
-0.405
-0.4
-0.405
-0.41
-0.425
-0.435
-0.445
-0.435
-0.41
-0.41
-0.425
-0.445
-0.425
-0.4
-0.4
-0.405
-0.415
-0.42
-0.43
-0.415
-0.4
-0.405
-0.42
-0.425
-0.415
-0.395
-0.38
-0.39
-0.395
-0.405
-0.395
-0.38
-0.345
-0.35
-0.39
-0.38
-0.37
-0.355
-0.35
-0.36
-0.37
-0.38
-0.37
-0.36
-0.35
-0.35
-0.375
-0.38
-0.37
-0.35
-0.33
-0.36
-0.365
-0.365
-0.33
-0.325
-0.315
-0.325
-0.325
-0.345
-0.345
-0.34
-0.3
-0.3
-0.315
-0.315
-0.305
-0.285
-0.275
-0.275
-0.28
-0.275
-0.275
-0.275
-0.265
-0.275
-0.315
-0.34
-0.32
-0.305
-0.31
-0.325
-0.345
-0.33
-0.325
-0.315
-0.295
-0.29
-0.3
-0.31
-0.31
-0.28
-0.285
-0.305
-0.3
-0.305
-0.305
-0.305
-0.285
-0.275
-0.29
-0.31
-0.3
-0.265
-0.25
-0.255
-0.27
-0.26
-0.25
-0.245
-0.23
-0.23
-0.25
-0.265
-0.245
-0.22
-0.2
-0.22
-0.225
-0.23
-0.215
-0.195
-0.185
-0.18
-0.2
-0.22
-0.205
-0.185
-0.18
-0.19
-0.2
-0.21
-0.2
-0.195
-0.17
-0.18
-0.2
-0.23
-0.21
-0.19
-0.19
-0.18
-0.19
-0.18
-0.195
-0.185
-0.155
-0.135
-0.165
-0.185
-0.185
-0.18
-0.165
-0.15
-0.13
-0.13
-0.16
-0.15
-0.125
-0.1
-0.115
-0.115
-0.09
-0.09
-0.08
-0.085
-0.1
-0.1
-0.07
-0.005
0.075
0.125
0.14
0.19
0.295
0.415
0.48
0.565
0.69
0.915
1.205
1.515
1.74
1.825
1.855
1.925
1.98
1.99
1.94
1.81
1.635
1.415
1.21
1.03
0.835
0.58
0.345
0.135
-0.005
-0.13
-0.185
-0.215
-0.235
-0.24
-0.255
-0.275
-0.27
-0.29
-0.305
-0.315
-0.32
-0.315
-0.31
-0.32
-0.33
-0.355
-0.355
-0.355
-0.32
-0.335
-0.36
-0.37
-0.35
-0.34
-0.335
-0.35
-0.345
-0.365
-0.375
-0.365
-0.35
-0.35
-0.375
-0.39
-0.38
-0.35
-0.33
-0.325
-0.345
-0.355
-0.32
-0.305
-0.3
-0.31
-0.3
-0.305
-0.29
-0.27
-0.235
-0.24
-0.255
-0.275
-0.25
-0.22
-0.195
-0.205
-0.225
-0.21
-0.175
-0.145
-0.095
-0.075
-0.07
-0.045
-0.025
0.005
0.06
0.075
0.07
0.075
0.095
0.115
0.12
0.115
0.1
0.095
0.085
0.09
0.085
0.06
0.04
0.015
0.015
0.025
0.045
0.035
0.035
0.005
0.01
0.03
0.04
0.035
0.035
0.04
0.055
0.09
0.115